# OpenSignals Text File Format. Version 1
# {"00:07:80:8C:AD:E2": {"position": 0, "device": "biosignalsplux", "device name": "00:07:80:8C:AD:E2", "device connection": "BTH00:07:80:8C:AD:E2", "sampling rate": 500, "resolution": [16], "firmware version": 776, "comments": "", "keywords": "", "mode": 0, "sync interval": 2, "date": "2024-1-19", "time": "14:56:12.409", "channels": [1], "sensor": ["EMG"], "label": ["CH1"], "column": ["nSeq", "DI", "CH1"], "special": [{"SpO2": [80, 40, 5, 4, 3, 3]}, {"SpO2": [80, 40, 5, 4, 3, 3]}, {"SpO2": [80, 40, 5, 4, 3, 3]}, {"SpO2": [80, 40, 5, 4, 3, 3]}, {"SpO2": [80, 40, 5, 4, 3, 3]}, {"SpO2": [80, 40, 5, 4, 3, 3]}, {"SpO2": [80, 40, 5, 4, 3, 3]}, {"SpO2": [80, 40, 5, 4, 3, 3]}], "digital IO": [0, 1], "sleeve color": ["light_blue"]}}
# EndOfHeader
0	0	33076	
1	0	33588	
2	0	32968	
3	0	32528	
4	0	32366	
5	0	32140	
6	0	31908	
7	0	32848	
8	0	33140	
9	0	33376	
10	0	33248	
11	0	33516	
12	0	33084	
13	0	32368	
14	0	32208	
15	0	31928	
16	0	32020	
17	0	32592	
18	0	32732	
19	0	34112	
20	0	33432	
21	0	33328	
22	0	32864	
23	0	32208	
24	0	32220	
25	0	32072	
26	0	32068	
27	0	32604	
28	0	32876	
29	0	33352	
30	0	33440	
31	0	33741	
32	0	33290	
33	0	32452	
34	0	32204	
35	0	32054	
36	0	31924	
37	0	32684	
38	0	32997	
39	0	33352	
40	0	33418	
41	0	33676	
42	0	32936	
43	0	32644	
44	0	32036	
45	0	32318	
46	0	31880	
47	0	32782	
48	0	33036	
49	0	33560	
50	0	33524	
51	0	33548	
52	0	32816	
53	0	32400	
54	0	32332	
55	0	31744	
56	0	31926	
57	0	32900	
58	0	33192	
59	0	33210	
60	0	33472	
61	0	33886	
62	0	32988	
63	0	32420	
64	0	32076	
65	0	32040	
66	0	32156	
67	0	32576	
68	0	33268	
69	0	33120	
70	0	33232	
71	0	33860	
72	0	32738	
73	0	32160	
74	0	32680	
75	0	32120	
76	0	31860	
77	0	32420	
78	0	33276	
79	0	33358	
80	0	33428	
81	0	33568	
82	0	32648	
83	0	32896	
84	0	32287	
85	0	31832	
86	0	31900	
87	0	32862	
88	0	33138	
89	0	33408	
90	0	33576	
91	0	33472	
92	0	32876	
93	0	32508	
94	0	32008	
95	0	32418	
96	0	31868	
97	0	32750	
98	0	33108	
99	0	33224	
100	0	33512	
101	0	33450	
102	0	32732	
103	0	32542	
104	0	32352	
105	0	31996	
106	0	32184	
107	0	32772	
108	0	33032	
109	0	33256	
110	0	33600	
111	0	33508	
112	0	32886	
113	0	32524	
114	0	32140	
115	0	32026	
116	0	31924	
117	0	32808	
118	0	33354	
119	0	33328	
120	0	33496	
121	0	33468	
122	0	32639	
123	0	32860	
124	0	32400	
125	0	32052	
126	0	32024	
127	0	32718	
128	0	33052	
129	0	33240	
130	0	33424	
131	0	33634	
132	0	32948	
133	0	32368	
134	0	32056	
135	0	32300	
136	0	32072	
137	0	32674	
138	0	32688	
139	0	33732	
140	0	33268	
141	0	33790	
142	0	33116	
143	0	32388	
144	0	32212	
145	0	31956	
146	0	31848	
147	0	32312	
148	0	33100	
149	0	33620	
150	0	33876	
151	0	33442	
152	0	32696	
153	0	32616	
154	0	31956	
155	0	32300	
156	0	31836	
157	0	32536	
158	0	33128	
159	0	33440	
160	0	33562	
161	0	33600	
162	0	32590	
163	0	32684	
164	0	32318	
165	0	32148	
166	0	31908	
167	0	32612	
168	0	33272	
169	0	33340	
170	0	33436	
171	0	32932	
172	0	33348	
173	0	32580	
174	0	32376	
175	0	31972	
176	0	32010	
177	0	32528	
178	0	33036	
179	0	33160	
180	0	33572	
181	0	33820	
182	0	33112	
183	0	32354	
184	0	32172	
185	0	31948	
186	0	32068	
187	0	32478	
188	0	32952	
189	0	33426	
190	0	33788	
191	0	33316	
192	0	33332	
193	0	32544	
194	0	32160	
195	0	31660	
196	0	32120	
197	0	32446	
198	0	33464	
199	0	33648	
200	0	33568	
201	0	33352	
202	0	32876	
203	0	32584	
204	0	32456	
205	0	31940	
206	0	31844	
207	0	32696	
208	0	32918	
209	0	33456	
210	0	33472	
211	0	33818	
212	0	32892	
213	0	32380	
214	0	32072	
215	0	32194	
216	0	32072	
217	0	32596	
218	0	33300	
219	0	33272	
220	0	33228	
221	0	33456	
222	0	33724	
223	0	32252	
224	0	32148	
225	0	31972	
226	0	32002	
227	0	32336	
228	0	33600	
229	0	33376	
230	0	33380	
231	0	33358	
232	0	33100	
233	0	32260	
234	0	32452	
235	0	31988	
236	0	32012	
237	0	32694	
238	0	33540	
239	0	33304	
240	0	33398	
241	0	33420	
242	0	32906	
243	0	32762	
244	0	32300	
245	0	31954	
246	0	31990	
247	0	32548	
248	0	33148	
249	0	33212	
250	0	33796	
251	0	33624	
252	0	32940	
253	0	32376	
254	0	32024	
255	0	32068	
256	0	32152	
257	0	32996	
258	0	32934	
259	0	33464	
260	0	33460	
261	0	33540	
262	0	32800	
263	0	32400	
264	0	32140	
265	0	32190	
266	0	31928	
267	0	32810	
268	0	33316	
269	0	33192	
270	0	33768	
271	0	33676	
272	0	32664	
273	0	32168	
274	0	32272	
275	0	32016	
276	0	32100	
277	0	32582	
278	0	33424	
279	0	33112	
280	0	33840	
281	0	33416	
282	0	33088	
283	0	32324	
284	0	32136	
285	0	32176	
286	0	31764	
287	0	32650	
288	0	33196	
289	0	33372	
290	0	33780	
291	0	33648	
292	0	32820	
293	0	32160	
294	0	32204	
295	0	31948	
296	0	32448	
297	0	32644	
298	0	33138	
299	0	33420	
300	0	33536	
301	0	33420	
302	0	32760	
303	0	32356	
304	0	32228	
305	0	32340	
306	0	31980	
307	0	32800	
308	0	32704	
309	0	33732	
310	0	33788	
311	0	33568	
312	0	32868	
313	0	32284	
314	0	32276	
315	0	31688	
316	0	31884	
317	0	32724	
318	0	33604	
319	0	33628	
320	0	33582	
321	0	33568	
322	0	32740	
323	0	32244	
324	0	32150	
325	0	31752	
326	0	32284	
327	0	32880	
328	0	33312	
329	0	33398	
330	0	33388	
331	0	33782	
332	0	32692	
333	0	32640	
334	0	32068	
335	0	31824	
336	0	32082	
337	0	32700	
338	0	33082	
339	0	33272	
340	0	33376	
341	0	33616	
342	0	33054	
343	0	32212	
344	0	32004	
345	0	32296	
346	0	32226	
347	0	32780	
348	0	33036	
349	0	33300	
350	0	33452	
351	0	33684	
352	0	32448	
353	0	32436	
354	0	32620	
355	0	32380	
356	0	31777	
357	0	32548	
358	0	32996	
359	0	33428	
360	0	33460	
361	0	33536	
362	0	32348	
363	0	33100	
364	0	32228	
365	0	31856	
366	0	32076	
367	0	32624	
368	0	33312	
369	0	33108	
370	0	33776	
371	0	33540	
372	0	32840	
373	0	32060	
374	0	32264	
375	0	32196	
376	0	32192	
377	0	32944	
378	0	32876	
379	0	33368	
380	0	33336	
381	0	33432	
382	0	33440	
383	0	32524	
384	0	32152	
385	0	31932	
386	0	31972	
387	0	32696	
388	0	33176	
389	0	33168	
390	0	33700	
391	0	33316	
392	0	32768	
393	0	32344	
394	0	32510	
395	0	31964	
396	0	32104	
397	0	32628	
398	0	33242	
399	0	33272	
400	0	33516	
401	0	33320	
402	0	32832	
403	0	32284	
404	0	32224	
405	0	32032	
406	0	32292	
407	0	32604	
408	0	32960	
409	0	33280	
410	0	33556	
411	0	33832	
412	0	33112	
413	0	31740	
414	0	32428	
415	0	32292	
416	0	31940	
417	0	32844	
418	0	33050	
419	0	33134	
420	0	33436	
421	0	33540	
422	0	33020	
423	0	32296	
424	0	32292	
425	0	32048	
426	0	31848	
427	0	32836	
428	0	32952	
429	0	33548	
430	0	33660	
431	0	33240	
432	0	33004	
433	0	32552	
434	0	32240	
435	0	32096	
436	0	32052	
437	0	32600	
438	0	32864	
439	0	33556	
440	0	33660	
441	0	33602	
442	0	32944	
443	0	32432	
444	0	32166	
445	0	31780	
446	0	31840	
447	0	32806	
448	0	33328	
449	0	33420	
450	0	33552	
451	0	33382	
452	0	32734	
453	0	32308	
454	0	32376	
455	0	32336	
456	0	32020	
457	0	32512	
458	0	33392	
459	0	33472	
460	0	33612	
461	0	33524	
462	0	32800	
463	0	32134	
464	0	32202	
465	0	32032	
466	0	31964	
467	0	32720	
468	0	33264	
469	0	33308	
470	0	33600	
471	0	33544	
472	0	32652	
473	0	32492	
474	0	32540	
475	0	32040	
476	0	31718	
477	0	33120	
478	0	33168	
479	0	33412	
480	0	33408	
481	0	33364	
482	0	32478	
483	0	32672	
484	0	32454	
485	0	32304	
486	0	32140	
487	0	32644	
488	0	33048	
489	0	33332	
490	0	33444	
491	0	33560	
492	0	32956	
493	0	32380	
494	0	31876	
495	0	32396	
496	0	32078	
497	0	32852	
498	0	33143	
499	0	32982	
500	0	33644	
501	0	33596	
502	0	33112	
503	0	32588	
504	0	31876	
505	0	31820	
506	0	32052	
507	0	32916	
508	0	33038	
509	0	32988	
510	0	33696	
511	0	33616	
512	0	32908	
513	0	32528	
514	0	32204	
515	0	32128	
516	0	31852	
517	0	32780	
518	0	33036	
519	0	33404	
520	0	33296	
521	0	33718	
522	0	32760	
523	0	32302	
524	0	32448	
525	0	32188	
526	0	32020	
527	0	32397	
528	0	33400	
529	0	33352	
530	0	33540	
531	0	33540	
532	0	32744	
533	0	32364	
534	0	32272	
535	0	31848	
536	0	32590	
537	0	32716	
538	0	32928	
539	0	33360	
540	0	33620	
541	0	33540	
542	0	32878	
543	0	32236	
544	0	32392	
545	0	31998	
546	0	31888	
547	0	32678	
548	0	33020	
549	0	33436	
550	0	33692	
551	0	33696	
552	0	32980	
553	0	32108	
554	0	32572	
555	0	32032	
556	0	32008	
557	0	32808	
558	0	33036	
559	0	33318	
560	0	33324	
561	0	33410	
562	0	33100	
563	0	32936	
564	0	32230	
565	0	32064	
566	0	31920	
567	0	32661	
568	0	33036	
569	0	33294	
570	0	33592	
571	0	33192	
572	0	32868	
573	0	32664	
574	0	32290	
575	0	32200	
576	0	32092	
577	0	32556	
578	0	32960	
579	0	33364	
580	0	33788	
581	0	33568	
582	0	32824	
583	0	32352	
584	0	32200	
585	0	32032	
586	0	32100	
587	0	32608	
588	0	33056	
589	0	33524	
590	0	33820	
591	0	33540	
592	0	32640	
593	0	32364	
594	0	32212	
595	0	31720	
596	0	32410	
597	0	32676	
598	0	32864	
599	0	33320	
600	0	33826	
601	0	33654	
602	0	32832	
603	0	32430	
604	0	32134	
605	0	31784	
606	0	32288	
607	0	32716	
608	0	33204	
609	0	33088	
610	0	33460	
611	0	33748	
612	0	32808	
613	0	32312	
614	0	32064	
615	0	32132	
616	0	31876	
617	0	33012	
618	0	32874	
619	0	33624	
620	0	33598	
621	0	33674	
622	0	32860	
623	0	32328	
624	0	32288	
625	0	31940	
626	0	31904	
627	0	32641	
628	0	33618	
629	0	32964	
630	0	33980	
631	0	33416	
632	0	32764	
633	0	32352	
634	0	32168	
635	0	32093	
636	0	31994	
637	0	32820	
638	0	33508	
639	0	33464	
640	0	33502	
641	0	33328	
642	0	32728	
643	0	32308	
644	0	32600	
645	0	32112	
646	0	31844	
647	0	32796	
648	0	33388	
649	0	33212	
650	0	33484	
651	0	34024	
652	0	32404	
653	0	32856	
654	0	32196	
655	0	31864	
656	0	32100	
657	0	32580	
658	0	33048	
659	0	33182	
660	0	33924	
661	0	33364	
662	0	32936	
663	0	32256	
664	0	32174	
665	0	32218	
666	0	32086	
667	0	32632	
668	0	33048	
669	0	33352	
670	0	33696	
671	0	33562	
672	0	32672	
673	0	32558	
674	0	32434	
675	0	32004	
676	0	31828	
677	0	32692	
678	0	32992	
679	0	33478	
680	0	33700	
681	0	33536	
682	0	32502	
683	0	32638	
684	0	32536	
685	0	31936	
686	0	32040	
687	0	32800	
688	0	33118	
689	0	33268	
690	0	33536	
691	0	33441	
692	0	32928	
693	0	32292	
694	0	32312	
695	0	31840	
696	0	31998	
697	0	32540	
698	0	33328	
699	0	33418	
700	0	33528	
701	0	33512	
702	0	32788	
703	0	32516	
704	0	32112	
705	0	32028	
706	0	32160	
707	0	32740	
708	0	32814	
709	0	33432	
710	0	33564	
711	0	33660	
712	0	32740	
713	0	32056	
714	0	32538	
715	0	31556	
716	0	32536	
717	0	32648	
718	0	33184	
719	0	33377	
720	0	33476	
721	0	33576	
722	0	32684	
723	0	32078	
724	0	32542	
725	0	32240	
726	0	31985	
727	0	32844	
728	0	32992	
729	0	33328	
730	0	33700	
731	0	33680	
732	0	32930	
733	0	32320	
734	0	32224	
735	0	31740	
736	0	32312	
737	0	32696	
738	0	33236	
739	0	33288	
740	0	33492	
741	0	33500	
742	0	32908	
743	0	32536	
744	0	32224	
745	0	32128	
746	0	31866	
747	0	32524	
748	0	33142	
749	0	33408	
750	0	33604	
751	0	33652	
752	0	33142	
753	0	32180	
754	0	32022	
755	0	32480	
756	0	32000	
757	0	32870	
758	0	33204	
759	0	33196	
760	0	33504	
761	0	33216	
762	0	32324	
763	0	33132	
764	0	32448	
765	0	31950	
766	0	32028	
767	0	32684	
768	0	32972	
769	0	33408	
770	0	33696	
771	0	33888	
772	0	33052	
773	0	32236	
774	0	32064	
775	0	31796	
776	0	31900	
777	0	32524	
778	0	33328	
779	0	33632	
780	0	33612	
781	0	33280	
782	0	32544	
783	0	32396	
784	0	32452	
785	0	31980	
786	0	32570	
787	0	32768	
788	0	33044	
789	0	33036	
790	0	33768	
791	0	33468	
792	0	32992	
793	0	32236	
794	0	32248	
795	0	32004	
796	0	32414	
797	0	32740	
798	0	32892	
799	0	33264	
800	0	33680	
801	0	33532	
802	0	32800	
803	0	31980	
804	0	32565	
805	0	32134	
806	0	32088	
807	0	32798	
808	0	32984	
809	0	33168	
810	0	33080	
811	0	33532	
812	0	33320	
813	0	32628	
814	0	31884	
815	0	32132	
816	0	32360	
817	0	33020	
818	0	33086	
819	0	33088	
820	0	33604	
821	0	33520	
822	0	32776	
823	0	32352	
824	0	32228	
825	0	31805	
826	0	32172	
827	0	32482	
828	0	33544	
829	0	33440	
830	0	33388	
831	0	33480	
832	0	32962	
833	0	32452	
834	0	31904	
835	0	32084	
836	0	32206	
837	0	32968	
838	0	33372	
839	0	33176	
840	0	33472	
841	0	33360	
842	0	32932	
843	0	32344	
844	0	32096	
845	0	31908	
846	0	31710	
847	0	33222	
848	0	33568	
849	0	33606	
850	0	33392	
851	0	33546	
852	0	32780	
853	0	32488	
854	0	32128	
855	0	31940	
856	0	31864	
857	0	33028	
858	0	33212	
859	0	33236	
860	0	33628	
861	0	33544	
862	0	32860	
863	0	32436	
864	0	32128	
865	0	31904	
866	0	32040	
867	0	32884	
868	0	33232	
869	0	33368	
870	0	33684	
871	0	33368	
872	0	32676	
873	0	32668	
874	0	32074	
875	0	32016	
876	0	31924	
877	0	32900	
878	0	32980	
879	0	33540	
880	0	33660	
881	0	33512	
882	0	32696	
883	0	32524	
884	0	31976	
885	0	32084	
886	0	32196	
887	0	32792	
888	0	33300	
889	0	33416	
890	0	33560	
891	0	33252	
892	0	33102	
893	0	32668	
894	0	32080	
895	0	31828	
896	0	31968	
897	0	33004	
898	0	33358	
899	0	33376	
900	0	33824	
901	0	33448	
902	0	32544	
903	0	32412	
904	0	32028	
905	0	32460	
906	0	32036	
907	0	32708	
908	0	33264	
909	0	33172	
910	0	33738	
911	0	33441	
912	0	32804	
913	0	32432	
914	0	32204	
915	0	31812	
916	0	32272	
917	0	32756	
918	0	33264	
919	0	33288	
920	0	33732	
921	0	33400	
922	0	32832	
923	0	32358	
924	0	32140	
925	0	32024	
926	0	31952	
927	0	32690	
928	0	33416	
929	0	33320	
930	0	33616	
931	0	33928	
932	0	32864	
933	0	32180	
934	0	32160	
935	0	31820	
936	0	32224	
937	0	32680	
938	0	33452	
939	0	33016	
940	0	34268	
941	0	33036	
942	0	32892	
943	0	32236	
944	0	32108	
945	0	32108	
946	0	32048	
947	0	32672	
948	0	33080	
949	0	33206	
950	0	33732	
951	0	33756	
952	0	32736	
953	0	32288	
954	0	32276	
955	0	32116	
956	0	32160	
957	0	32572	
958	0	33052	
959	0	33312	
960	0	33620	
961	0	33472	
962	0	32510	
963	0	32476	
964	0	32322	
965	0	32132	
966	0	32072	
967	0	32736	
968	0	33222	
969	0	33308	
970	0	33460	
971	0	33326	
972	0	32852	
973	0	32488	
974	0	32508	
975	0	32128	
976	0	32142	
977	0	32828	
978	0	33184	
979	0	32974	
980	0	33668	
981	0	33588	
982	0	32772	
983	0	32346	
984	0	32192	
985	0	31912	
986	0	32080	
987	0	32520	
988	0	33352	
989	0	33116	
990	0	34440	
991	0	33464	
992	0	32946	
993	0	32244	
994	0	31904	
995	0	31736	
996	0	32612	
997	0	32832	
998	0	32850	
999	0	33168	
1000	0	33724	
1001	0	33576	
1002	0	32784	
1003	0	32284	
1004	0	32178	
1005	0	31990	
1006	0	32212	
1007	0	32492	
1008	0	33700	
1009	0	33310	
1010	0	33488	
1011	0	33504	
1012	0	32590	
1013	0	32148	
1014	0	32452	
1015	0	32080	
1016	0	32282	
1017	0	32466	
1018	0	33268	
1019	0	33464	
1020	0	33428	
1021	0	33396	
1022	0	32636	
1023	0	32436	
1024	0	32328	
1025	0	32088	
1026	0	31876	
1027	0	32640	
1028	0	33164	
1029	0	33436	
1030	0	33752	
1031	0	33460	
1032	0	32728	
1033	0	32152	
1034	0	32292	
1035	0	32004	
1036	0	32080	
1037	0	33110	
1038	0	33214	
1039	0	33444	
1040	0	33420	
1041	0	33364	
1042	0	32804	
1043	0	32424	
1044	0	31932	
1045	0	32276	
1046	0	32132	
1047	0	32548	
1048	0	33420	
1049	0	33268	
1050	0	33588	
1051	0	33520	
1052	0	32876	
1053	0	32420	
1054	0	32276	
1055	0	31892	
1056	0	31926	
1057	0	32804	
1058	0	33260	
1059	0	33366	
1060	0	33744	
1061	0	33472	
1062	0	32892	
1063	0	32244	
1064	0	31842	
1065	0	32300	
1066	0	32516	
1067	0	33044	
1068	0	33056	
1069	0	33128	
1070	0	33632	
1071	0	33532	
1072	0	32756	
1073	0	32484	
1074	0	32040	
1075	0	31952	
1076	0	32036	
1077	0	32756	
1078	0	33132	
1079	0	33424	
1080	0	33560	
1081	0	33736	
1082	0	32952	
1083	0	32206	
1084	0	32196	
1085	0	31788	
1086	0	32336	
1087	0	32928	
1088	0	32738	
1089	0	33534	
1090	0	33728	
1091	0	33570	
1092	0	32744	
1093	0	32488	
1094	0	31932	
1095	0	31948	
1096	0	32128	
1097	0	32704	
1098	0	32808	
1099	0	33666	
1100	0	33524	
1101	0	33696	
1102	0	32894	
1103	0	32428	
1104	0	32276	
1105	0	31820	
1106	0	32016	
1107	0	32848	
1108	0	33016	
1109	0	33384	
1110	0	33668	
1111	0	33588	
1112	0	32676	
1113	0	32308	
1114	0	32468	
1115	0	31576	
1116	0	32292	
1117	0	32768	
1118	0	33584	
1119	0	33272	
1120	0	33272	
1121	0	33344	
1122	0	32416	
1123	0	32700	
1124	0	32444	
1125	0	32208	
1126	0	32088	
1127	0	32830	
1128	0	33092	
1129	0	33096	
1130	0	33892	
1131	0	33386	
1132	0	32592	
1133	0	32256	
1134	0	32728	
1135	0	32004	
1136	0	32116	
1137	0	32928	
1138	0	33056	
1139	0	33388	
1140	0	33432	
1141	0	33632	
1142	0	32616	
1143	0	32272	
1144	0	32416	
1145	0	31976	
1146	0	31990	
1147	0	32700	
1148	0	33248	
1149	0	33364	
1150	0	33404	
1151	0	33376	
1152	0	32936	
1153	0	32560	
1154	0	32464	
1155	0	31920	
1156	0	32120	
1157	0	33062	
1158	0	33092	
1159	0	33398	
1160	0	33544	
1161	0	33492	
1162	0	32900	
1163	0	32312	
1164	0	32192	
1165	0	31948	
1166	0	32292	
1167	0	32574	
1168	0	33064	
1169	0	33364	
1170	0	33652	
1171	0	33432	
1172	0	32742	
1173	0	32236	
1174	0	32382	
1175	0	31644	
1176	0	32232	
1177	0	32812	
1178	0	33274	
1179	0	33408	
1180	0	33664	
1181	0	33480	
1182	0	32680	
1183	0	32198	
1184	0	32344	
1185	0	32104	
1186	0	31860	
1187	0	32900	
1188	0	33252	
1189	0	33164	
1190	0	33532	
1191	0	33942	
1192	0	32636	
1193	0	32262	
1194	0	32380	
1195	0	31944	
1196	0	31716	
1197	0	32820	
1198	0	33304	
1199	0	33632	
1200	0	33704	
1201	0	33744	
1202	0	32556	
1203	0	31864	
1204	0	32484	
1205	0	32248	
1206	0	31956	
1207	0	32666	
1208	0	33212	
1209	0	33188	
1210	0	33340	
1211	0	33492	
1212	0	32964	
1213	0	32388	
1214	0	32288	
1215	0	31840	
1216	0	32060	
1217	0	32882	
1218	0	33252	
1219	0	33340	
1220	0	33568	
1221	0	33390	
1222	0	32660	
1223	0	32368	
1224	0	32104	
1225	0	32196	
1226	0	32232	
1227	0	32736	
1228	0	32992	
1229	0	33452	
1230	0	33682	
1231	0	33432	
1232	0	32680	
1233	0	32440	
1234	0	32164	
1235	0	32276	
1236	0	32112	
1237	0	32656	
1238	0	33128	
1239	0	33360	
1240	0	33416	
1241	0	33128	
1242	0	33799	
1243	0	31980	
1244	0	32296	
1245	0	31644	
1246	0	32288	
1247	0	32908	
1248	0	33028	
1249	0	33080	
1250	0	33790	
1251	0	33588	
1252	0	32820	
1253	0	32280	
1254	0	32264	
1255	0	31936	
1256	0	32092	
1257	0	32724	
1258	0	33132	
1259	0	33168	
1260	0	33700	
1261	0	33534	
1262	0	33176	
1263	0	32236	
1264	0	32076	
1265	0	32176	
1266	0	31892	
1267	0	32782	
1268	0	32888	
1269	0	33776	
1270	0	34040	
1271	0	33504	
1272	0	32636	
1273	0	32152	
1274	0	32108	
1275	0	31996	
1276	0	32076	
1277	0	32696	
1278	0	33248	
1279	0	33268	
1280	0	33656	
1281	0	33430	
1282	0	32780	
1283	0	32360	
1284	0	32206	
1285	0	31814	
1286	0	32376	
1287	0	32972	
1288	0	33116	
1289	0	33236	
1290	0	33744	
1291	0	33390	
1292	0	32728	
1293	0	32412	
1294	0	32060	
1295	0	32144	
1296	0	31968	
1297	0	32664	
1298	0	33208	
1299	0	33204	
1300	0	33740	
1301	0	33452	
1302	0	32760	
1303	0	32372	
1304	0	32096	
1305	0	31936	
1306	0	32328	
1307	0	32752	
1308	0	33068	
1309	0	33488	
1310	0	33594	
1311	0	33624	
1312	0	32688	
1313	0	32453	
1314	0	32460	
1315	0	31828	
1316	0	31844	
1317	0	32656	
1318	0	33316	
1319	0	33136	
1320	0	33874	
1321	0	33512	
1322	0	32932	
1323	0	32364	
1324	0	32192	
1325	0	31980	
1326	0	32104	
1327	0	32486	
1328	0	33420	
1329	0	33572	
1330	0	33760	
1331	0	33260	
1332	0	33032	
1333	0	32272	
1334	0	32220	
1335	0	31744	
1336	0	32040	
1337	0	32936	
1338	0	33164	
1339	0	33400	
1340	0	33590	
1341	0	33452	
1342	0	32624	
1343	0	32352	
1344	0	32348	
1345	0	31860	
1346	0	32230	
1347	0	32814	
1348	0	33252	
1349	0	33272	
1350	0	33692	
1351	0	33556	
1352	0	32584	
1353	0	32444	
1354	0	32184	
1355	0	31608	
1356	0	31816	
1357	0	33520	
1358	0	33416	
1359	0	33000	
1360	0	33424	
1361	0	33700	
1362	0	32560	
1363	0	32276	
1364	0	32172	
1365	0	31960	
1366	0	32136	
1367	0	32716	
1368	0	33328	
1369	0	33408	
1370	0	33812	
1371	0	33420	
1372	0	32376	
1373	0	32628	
1374	0	32484	
1375	0	32212	
1376	0	31832	
1377	0	33000	
1378	0	33040	
1379	0	33492	
1380	0	33710	
1381	0	33148	
1382	0	33376	
1383	0	32488	
1384	0	32204	
1385	0	31960	
1386	0	31985	
1387	0	32556	
1388	0	32852	
1389	0	33448	
1390	0	34080	
1391	0	33492	
1392	0	32780	
1393	0	32226	
1394	0	32100	
1395	0	31918	
1396	0	32192	
1397	0	32748	
1398	0	33332	
1399	0	33184	
1400	0	33708	
1401	0	33660	
1402	0	32636	
1403	0	32320	
1404	0	32252	
1405	0	31948	
1406	0	31912	
1407	0	33124	
1408	0	32884	
1409	0	33416	
1410	0	33692	
1411	0	33044	
1412	0	32748	
1413	0	32848	
1414	0	32188	
1415	0	31884	
1416	0	32312	
1417	0	32764	
1418	0	33020	
1419	0	33152	
1420	0	33708	
1421	0	33432	
1422	0	32852	
1423	0	32612	
1424	0	31980	
1425	0	31776	
1426	0	32220	
1427	0	32952	
1428	0	33148	
1429	0	33162	
1430	0	33538	
1431	0	33156	
1432	0	32860	
1433	0	32516	
1434	0	32244	
1435	0	31962	
1436	0	31926	
1437	0	33000	
1438	0	33150	
1439	0	33424	
1440	0	33660	
1441	0	33572	
1442	0	32592	
1443	0	32092	
1444	0	32344	
1445	0	32080	
1446	0	31984	
1447	0	32900	
1448	0	33210	
1449	0	33640	
1450	0	33370	
1451	0	33604	
1452	0	32776	
1453	0	31944	
1454	0	32396	
1455	0	32032	
1456	0	31912	
1457	0	32824	
1458	0	32864	
1459	0	33670	
1460	0	33316	
1461	0	33652	
1462	0	32408	
1463	0	32960	
1464	0	32128	
1465	0	31920	
1466	0	31860	
1467	0	33196	
1468	0	33396	
1469	0	33190	
1470	0	33564	
1471	0	33492	
1472	0	32762	
1473	0	32044	
1474	0	32360	
1475	0	31960	
1476	0	32076	
1477	0	33068	
1478	0	33344	
1479	0	33000	
1480	0	33916	
1481	0	33680	
1482	0	32708	
1483	0	32242	
1484	0	32152	
1485	0	31678	
1486	0	32592	
1487	0	32488	
1488	0	33072	
1489	0	33200	
1490	0	33674	
1491	0	33092	
1492	0	33280	
1493	0	32296	
1494	0	32204	
1495	0	31980	
1496	0	32296	
1497	0	32556	
1498	0	33180	
1499	0	33204	
1500	0	33480	
1501	0	33494	
1502	0	32720	
1503	0	32408	
1504	0	32682	
1505	0	31800	
1506	0	32108	
1507	0	32908	
1508	0	32972	
1509	0	33476	
1510	0	33820	
1511	0	33556	
1512	0	32532	
1513	0	32620	
1514	0	32232	
1515	0	32000	
1516	0	32220	
1517	0	32696	
1518	0	33008	
1519	0	33226	
1520	0	33796	
1521	0	33224	
1522	0	32692	
1523	0	32640	
1524	0	32608	
1525	0	32062	
1526	0	31988	
1527	0	32404	
1528	0	33686	
1529	0	33124	
1530	0	33936	
1531	0	33344	
1532	0	32760	
1533	0	32196	
1534	0	32416	
1535	0	32012	
1536	0	32080	
1537	0	32408	
1538	0	33298	
1539	0	33496	
1540	0	33688	
1541	0	33064	
1542	0	32976	
1543	0	32582	
1544	0	32310	
1545	0	31920	
1546	0	31732	
1547	0	32984	
1548	0	33244	
1549	0	33268	
1550	0	33766	
1551	0	33423	
1552	0	32588	
1553	0	32432	
1554	0	32245	
1555	0	31820	
1556	0	32422	
1557	0	32492	
1558	0	33136	
1559	0	33850	
1560	0	33668	
1561	0	33210	
1562	0	32728	
1563	0	32098	
1564	0	32640	
1565	0	31986	
1566	0	31996	
1567	0	32548	
1568	0	33166	
1569	0	33280	
1570	0	33652	
1571	0	33722	
1572	0	32768	
1573	0	32076	
1574	0	32396	
1575	0	31836	
1576	0	32216	
1577	0	32724	
1578	0	33120	
1579	0	33328	
1580	0	33364	
1581	0	33594	
1582	0	32812	
1583	0	32524	
1584	0	32444	
1585	0	32072	
1586	0	32000	
1587	0	32776	
1588	0	33108	
1589	0	33280	
1590	0	33516	
1591	0	33528	
1592	0	32544	
1593	0	32356	
1594	0	32576	
1595	0	31930	
1596	0	32312	
1597	0	32948	
1598	0	32756	
1599	0	33692	
1600	0	33512	
1601	0	33472	
1602	0	32940	
1603	0	32352	
1604	0	32300	
1605	0	31672	
1606	0	32196	
1607	0	33300	
1608	0	33064	
1609	0	33060	
1610	0	33556	
1611	0	33276	
1612	0	32872	
1613	0	32296	
1614	0	32156	
1615	0	32066	
1616	0	32260	
1617	0	32704	
1618	0	33216	
1619	0	33440	
1620	0	33632	
1621	0	32952	
1622	0	32980	
1623	0	32812	
1624	0	32276	
1625	0	31944	
1626	0	32028	
1627	0	32680	
1628	0	33216	
1629	0	33406	
1630	0	33432	
1631	0	33348	
1632	0	32700	
1633	0	32676	
1634	0	32336	
1635	0	32008	
1636	0	32044	
1637	0	32688	
1638	0	33136	
1639	0	33216	
1640	0	33678	
1641	0	33464	
1642	0	32996	
1643	0	32552	
1644	0	31976	
1645	0	32144	
1646	0	32168	
1647	0	32628	
1648	0	33167	
1649	0	33404	
1650	0	33728	
1651	0	33396	
1652	0	32716	
1653	0	32444	
1654	0	32360	
1655	0	31956	
1656	0	32010	
1657	0	32694	
1658	0	33132	
1659	0	33180	
1660	0	33992	
1661	0	33508	
1662	0	32796	
1663	0	32232	
1664	0	32180	
1665	0	32072	
1666	0	32028	
1667	0	32650	
1668	0	33004	
1669	0	33452	
1670	0	33940	
1671	0	33408	
1672	0	32564	
1673	0	32708	
1674	0	32328	
1675	0	31848	
1676	0	31736	
1677	0	32896	
1678	0	33328	
1679	0	33252	
1680	0	33552	
1681	0	33644	
1682	0	32812	
1683	0	32064	
1684	0	32164	
1685	0	32096	
1686	0	32224	
1687	0	32572	
1688	0	33269	
1689	0	33384	
1690	0	33624	
1691	0	33394	
1692	0	32676	
1693	0	32256	
1694	0	32688	
1695	0	31848	
1696	0	31966	
1697	0	32672	
1698	0	33264	
1699	0	33450	
1700	0	33758	
1701	0	33430	
1702	0	32676	
1703	0	32110	
1704	0	32332	
1705	0	32012	
1706	0	32198	
1707	0	33008	
1708	0	33272	
1709	0	33244	
1710	0	33636	
1711	0	33314	
1712	0	32688	
1713	0	32388	
1714	0	32180	
1715	0	32132	
1716	0	32177	
1717	0	32756	
1718	0	33428	
1719	0	33564	
1720	0	33592	
1721	0	33196	
1722	0	32768	
1723	0	32188	
1724	0	32784	
1725	0	32156	
1726	0	31992	
1727	0	32508	
1728	0	33040	
1729	0	33324	
1730	0	33648	
1731	0	33440	
1732	0	32854	
1733	0	32354	
1734	0	32188	
1735	0	31864	
1736	0	32060	
1737	0	33040	
1738	0	33364	
1739	0	33716	
1740	0	33536	
1741	0	33316	
1742	0	32652	
1743	0	32056	
1744	0	32596	
1745	0	31972	
1746	0	32040	
1747	0	32812	
1748	0	33232	
1749	0	33032	
1750	0	33998	
1751	0	33292	
1752	0	32608	
1753	0	32444	
1754	0	32170	
1755	0	32012	
1756	0	32028	
1757	0	32664	
1758	0	33434	
1759	0	33136	
1760	0	33900	
1761	0	33460	
1762	0	32688	
1763	0	32324	
1764	0	32196	
1765	0	31960	
1766	0	32200	
1767	0	32980	
1768	0	33064	
1769	0	33322	
1770	0	33712	
1771	0	33454	
1772	0	32756	
1773	0	31830	
1774	0	32784	
1775	0	32020	
1776	0	32252	
1777	0	32656	
1778	0	32946	
1779	0	33596	
1780	0	33568	
1781	0	33316	
1782	0	32784	
1783	0	32422	
1784	0	32232	
1785	0	31856	
1786	0	31808	
1787	0	33180	
1788	0	33024	
1789	0	33422	
1790	0	33136	
1791	0	33732	
1792	0	32958	
1793	0	32228	
1794	0	32016	
1795	0	31936	
1796	0	32136	
1797	0	33312	
1798	0	33064	
1799	0	33084	
1800	0	33944	
1801	0	33168	
1802	0	32788	
1803	0	32536	
1804	0	32268	
1805	0	31912	
1806	0	32156	
1807	0	32820	
1808	0	33314	
1809	0	33068	
1810	0	33758	
1811	0	33392	
1812	0	32688	
1813	0	32416	
1814	0	32100	
1815	0	32068	
1816	0	32168	
1817	0	32868	
1818	0	33352	
1819	0	33112	
1820	0	33552	
1821	0	33204	
1822	0	33040	
1823	0	32312	
1824	0	32308	
1825	0	32080	
1826	0	32222	
1827	0	32670	
1828	0	33044	
1829	0	33396	
1830	0	33560	
1831	0	33408	
1832	0	32980	
1833	0	32414	
1834	0	32192	
1835	0	31816	
1836	0	32204	
1837	0	32892	
1838	0	33156	
1839	0	33148	
1840	0	33580	
1841	0	33596	
1842	0	33128	
1843	0	32282	
1844	0	32144	
1845	0	31960	
1846	0	31884	
1847	0	33066	
1848	0	33190	
1849	0	33508	
1850	0	33692	
1851	0	33796	
1852	0	32836	
1853	0	32380	
1854	0	32312	
1855	0	31900	
1856	0	32054	
1857	0	32632	
1858	0	33204	
1859	0	33296	
1860	0	33620	
1861	0	33584	
1862	0	32712	
1863	0	32748	
1864	0	32440	
1865	0	32060	
1866	0	31852	
1867	0	32636	
1868	0	33140	
1869	0	33488	
1870	0	33688	
1871	0	33132	
1872	0	32612	
1873	0	32509	
1874	0	32676	
1875	0	31938	
1876	0	31804	
1877	0	33082	
1878	0	32980	
1879	0	33092	
1880	0	33480	
1881	0	33808	
1882	0	33376	
1883	0	32326	
1884	0	32216	
1885	0	31460	
1886	0	32296	
1887	0	32894	
1888	0	33066	
1889	0	33366	
1890	0	33780	
1891	0	33148	
1892	0	32984	
1893	0	32328	
1894	0	32276	
1895	0	31916	
1896	0	31952	
1897	0	33114	
1898	0	33004	
1899	0	33420	
1900	0	33620	
1901	0	33264	
1902	0	32860	
1903	0	32352	
1904	0	32188	
1905	0	31828	
1906	0	32180	
1907	0	32752	
1908	0	33282	
1909	0	33176	
1910	0	33500	
1911	0	33312	
1912	0	32996	
1913	0	32232	
1914	0	32456	
1915	0	31740	
1916	0	32240	
1917	0	32816	
1918	0	33192	
1919	0	33276	
1920	0	33580	
1921	0	33124	
1922	0	32788	
1923	0	32604	
1924	0	32048	
1925	0	32148	
1926	0	31968	
1927	0	32868	
1928	0	33204	
1929	0	33216	
1930	0	33952	
1931	0	33256	
1932	0	32632	
1933	0	32764	
1934	0	32172	
1935	0	32104	
1936	0	32164	
1937	0	32648	
1938	0	32936	
1939	0	32628	
1940	0	34248	
1941	0	33700	
1942	0	32804	
1943	0	32292	
1944	0	32168	
1945	0	31788	
1946	0	32048	
1947	0	32960	
1948	0	33032	
1949	0	33476	
1950	0	33796	
1951	0	33268	
1952	0	32832	
1953	0	32520	
1954	0	32148	
1955	0	32080	
1956	0	32184	
1957	0	32636	
1958	0	33116	
1959	0	33268	
1960	0	33808	
1961	0	33164	
1962	0	32704	
1963	0	32352	
1964	0	32208	
1965	0	32136	
1966	0	32180	
1967	0	32724	
1968	0	33296	
1969	0	33280	
1970	0	33572	
1971	0	33256	
1972	0	32936	
1973	0	32380	
1974	0	32152	
1975	0	31984	
1976	0	32184	
1977	0	32636	
1978	0	33270	
1979	0	33284	
1980	0	33708	
1981	0	33384	
1982	0	32852	
1983	0	32512	
1984	0	32128	
1985	0	31892	
1986	0	32164	
1987	0	32672	
1988	0	33328	
1989	0	33072	
1990	0	33728	
1991	0	33612	
1992	0	33052	
1993	0	32528	
1994	0	32282	
1995	0	31792	
1996	0	32088	
1997	0	32804	
1998	0	33366	
1999	0	33104	
2000	0	33566	
2001	0	33420	
2002	0	32716	
2003	0	32548	
2004	0	31892	
2005	0	32500	
2006	0	32218	
2007	0	32896	
2008	0	33100	
2009	0	33220	
2010	0	33336	
2011	0	33712	
2012	0	32644	
2013	0	32808	
2014	0	32140	
2015	0	31776	
2016	0	32336	
2017	0	32496	
2018	0	33260	
2019	0	33028	
2020	0	34120	
2021	0	33452	
2022	0	32680	
2023	0	32168	
2024	0	32576	
2025	0	31988	
2026	0	31916	
2027	0	32660	
2028	0	33224	
2029	0	33140	
2030	0	33912	
2031	0	33132	
2032	0	32824	
2033	0	32608	
2034	0	32476	
2035	0	31984	
2036	0	32046	
2037	0	32640	
2038	0	32980	
2039	0	33408	
2040	0	33660	
2041	0	33390	
2042	0	32868	
2043	0	32320	
2044	0	32342	
2045	0	31830	
2046	0	31996	
2047	0	32708	
2048	0	33524	
2049	0	33300	
2050	0	33724	
2051	0	33528	
2052	0	32740	
2053	0	32012	
2054	0	32516	
2055	0	31940	
2056	0	32358	
2057	0	32352	
2058	0	32956	
2059	0	33464	
2060	0	33776	
2061	0	33220	
2062	0	32672	
2063	0	32904	
2064	0	32136	
2065	0	31888	
2066	0	31756	
2067	0	32820	
2068	0	32800	
2069	0	33652	
2070	0	33752	
2071	0	33348	
2072	0	32584	
2073	0	32196	
2074	0	32696	
2075	0	32128	
2076	0	32076	
2077	0	32784	
2078	0	33376	
2079	0	33272	
2080	0	33710	
2081	0	33250	
2082	0	32404	
2083	0	32628	
2084	0	32248	
2085	0	32072	
2086	0	31880	
2087	0	33152	
2088	0	32876	
2089	0	33124	
2090	0	33716	
2091	0	33040	
2092	0	33124	
2093	0	32386	
2094	0	31968	
2095	0	31886	
2096	0	32352	
2097	0	32646	
2098	0	33204	
2099	0	33334	
2100	0	33560	
2101	0	33296	
2102	0	33084	
2103	0	32532	
2104	0	32256	
2105	0	31736	
2106	0	32360	
2107	0	32652	
2108	0	33164	
2109	0	33192	
2110	0	33764	
2111	0	33532	
2112	0	32612	
2113	0	32450	
2114	0	32152	
2115	0	31968	
2116	0	32400	
2117	0	32586	
2118	0	33476	
2119	0	33228	
2120	0	33772	
2121	0	33172	
2122	0	32768	
2123	0	32364	
2124	0	31998	
2125	0	32148	
2126	0	32256	
2127	0	32758	
2128	0	33316	
2129	0	33318	
2130	0	33572	
2131	0	33208	
2132	0	32892	
2133	0	32476	
2134	0	32488	
2135	0	31892	
2136	0	31952	
2137	0	33296	
2138	0	33176	
2139	0	33198	
2140	0	33448	
2141	0	33044	
2142	0	33080	
2143	0	32748	
2144	0	32036	
2145	0	32052	
2146	0	32068	
2147	0	32840	
2148	0	33120	
2149	0	33244	
2150	0	33626	
2151	0	33400	
2152	0	32680	
2153	0	32416	
2154	0	32172	
2155	0	32032	
2156	0	32384	
2157	0	32792	
2158	0	33216	
2159	0	33160	
2160	0	33980	
2161	0	33404	
2162	0	32652	
2163	0	32320	
2164	0	32016	
2165	0	32112	
2166	0	32108	
2167	0	33212	
2168	0	33312	
2169	0	32974	
2170	0	33500	
2171	0	33248	
2172	0	32704	
2173	0	32244	
2174	0	32452	
2175	0	31940	
2176	0	31960	
2177	0	32840	
2178	0	32894	
2179	0	33708	
2180	0	33356	
2181	0	33614	
2182	0	32692	
2183	0	32388	
2184	0	32032	
2185	0	32012	
2186	0	32196	
2187	0	32472	
2188	0	33512	
2189	0	33340	
2190	0	33692	
2191	0	33512	
2192	0	32668	
2193	0	32384	
2194	0	32332	
2195	0	31860	
2196	0	32156	
2197	0	32726	
2198	0	33220	
2199	0	33244	
2200	0	34080	
2201	0	33338	
2202	0	32708	
2203	0	32352	
2204	0	32364	
2205	0	31970	
2206	0	31908	
2207	0	32704	
2208	0	33278	
2209	0	33604	
2210	0	33616	
2211	0	33356	
2212	0	32422	
2213	0	32826	
2214	0	32288	
2215	0	31648	
2216	0	32104	
2217	0	32908	
2218	0	33034	
2219	0	33320	
2220	0	33718	
2221	0	33480	
2222	0	32696	
2223	0	32384	
2224	0	32100	
2225	0	31880	
2226	0	31786	
2227	0	33220	
2228	0	33504	
2229	0	33092	
2230	0	33594	
2231	0	33476	
2232	0	32824	
2233	0	32240	
2234	0	32092	
2235	0	32060	
2236	0	32100	
2237	0	32712	
2238	0	33344	
2239	0	33532	
2240	0	33588	
2241	0	33632	
2242	0	32872	
2243	0	32100	
2244	0	32112	
2245	0	31884	
2246	0	32248	
2247	0	33032	
2248	0	33404	
2249	0	33200	
2250	0	33484	
2251	0	33216	
2252	0	32692	
2253	0	32604	
2254	0	32564	
2255	0	31944	
2256	0	32068	
2257	0	32776	
2258	0	33098	
2259	0	33244	
2260	0	33676	
2261	0	33424	
2262	0	32852	
2263	0	32390	
2264	0	32304	
2265	0	31862	
2266	0	32168	
2267	0	32676	
2268	0	33349	
2269	0	33484	
2270	0	33528	
2271	0	33032	
2272	0	33128	
2273	0	32220	
2274	0	32084	
2275	0	32124	
2276	0	32252	
2277	0	32840	
2278	0	33256	
2279	0	33348	
2280	0	33684	
2281	0	33168	
2282	0	33188	
2283	0	32280	
2284	0	32302	
2285	0	31912	
2286	0	32048	
2287	0	32778	
2288	0	33428	
2289	0	33304	
2290	0	33474	
2291	0	33780	
2292	0	32440	
2293	0	32744	
2294	0	32144	
2295	0	31932	
2296	0	32188	
2297	0	32686	
2298	0	33028	
2299	0	33424	
2300	0	33732	
2301	0	32756	
2302	0	33504	
2303	0	32236	
2304	0	32120	
2305	0	31896	
2306	0	32192	
2307	0	32736	
2308	0	33060	
2309	0	33620	
2310	0	33700	
2311	0	33408	
2312	0	32828	
2313	0	32204	
2314	0	32216	
2315	0	31932	
2316	0	32164	
2317	0	32980	
2318	0	33144	
2319	0	33568	
2320	0	33828	
2321	0	33496	
2322	0	32572	
2323	0	32310	
2324	0	32328	
2325	0	31918	
2326	0	32164	
2327	0	32812	
2328	0	33136	
2329	0	33324	
2330	0	33784	
2331	0	33308	
2332	0	32808	
2333	0	32346	
2334	0	32028	
2335	0	32078	
2336	0	32236	
2337	0	33060	
2338	0	33376	
2339	0	33156	
2340	0	33448	
2341	0	33224	
2342	0	32912	
2343	0	32668	
2344	0	32562	
2345	0	31876	
2346	0	31956	
2347	0	32760	
2348	0	33218	
2349	0	33365	
2350	0	33796	
2351	0	33470	
2352	0	32524	
2353	0	32130	
2354	0	32160	
2355	0	32256	
2356	0	32572	
2357	0	32686	
2358	0	32920	
2359	0	33264	
2360	0	33688	
2361	0	33092	
2362	0	33152	
2363	0	32368	
2364	0	32220	
2365	0	32036	
2366	0	32004	
2367	0	32968	
2368	0	33228	
2369	0	33260	
2370	0	33604	
2371	0	33252	
2372	0	32932	
2373	0	32180	
2374	0	32476	
2375	0	31840	
2376	0	32036	
2377	0	32672	
2378	0	33440	
2379	0	33240	
2380	0	33492	
2381	0	33664	
2382	0	32772	
2383	0	32204	
2384	0	32696	
2385	0	31776	
2386	0	31832	
2387	0	32924	
2388	0	33260	
2389	0	33302	
2390	0	33450	
2391	0	33376	
2392	0	32708	
2393	0	32504	
2394	0	32068	
2395	0	32008	
2396	0	32260	
2397	0	33004	
2398	0	33172	
2399	0	33088	
2400	0	33552	
2401	0	33630	
2402	0	32816	
2403	0	32436	
2404	0	32060	
2405	0	31844	
2406	0	32320	
2407	0	32645	
2408	0	33180	
2409	0	33500	
2410	0	33584	
2411	0	33044	
2412	0	32840	
2413	0	32324	
2414	0	32350	
2415	0	32020	
2416	0	32096	
2417	0	33028	
2418	0	32820	
2419	0	33868	
2420	0	33556	
2421	0	33524	
2422	0	32974	
2423	0	32024	
2424	0	32372	
2425	0	31868	
2426	0	32130	
2427	0	32720	
2428	0	33150	
2429	0	33216	
2430	0	34008	
2431	0	33368	
2432	0	32698	
2433	0	32376	
2434	0	32060	
2435	0	31924	
2436	0	32476	
2437	0	32852	
2438	0	33102	
2439	0	33248	
2440	0	33596	
2441	0	32988	
2442	0	33188	
2443	0	32412	
2444	0	32640	
2445	0	31818	
2446	0	31976	
2447	0	32772	
2448	0	33154	
2449	0	33236	
2450	0	33568	
2451	0	33264	
2452	0	32868	
2453	0	32408	
2454	0	32414	
2455	0	31886	
2456	0	31800	
2457	0	33052	
2458	0	33148	
2459	0	33484	
2460	0	33616	
2461	0	33276	
2462	0	32548	
2463	0	32540	
2464	0	32406	
2465	0	31996	
2466	0	32008	
2467	0	32740	
2468	0	33236	
2469	0	33440	
2470	0	33408	
2471	0	33600	
2472	0	32988	
2473	0	32176	
2474	0	32416	
2475	0	31944	
2476	0	31710	
2477	0	33092	
2478	0	33280	
2479	0	33380	
2480	0	33508	
2481	0	33308	
2482	0	32824	
2483	0	32448	
2484	0	32072	
2485	0	32036	
2486	0	32108	
2487	0	32692	
2488	0	33092	
2489	0	33208	
2490	0	33916	
2491	0	33404	
2492	0	32720	
2493	0	32376	
2494	0	32068	
2495	0	31700	
2496	0	32216	
2497	0	33104	
2498	0	33182	
2499	0	32928	
2500	0	33656	
2501	0	33888	
2502	0	32644	
2503	0	32344	
2504	0	32328	
2505	0	31656	
2506	0	32092	
2507	0	32708	
2508	0	33200	
2509	0	33612	
2510	0	33696	
2511	0	33204	
2512	0	32990	
2513	0	32324	
2514	0	32032	
2515	0	31824	
2516	0	32284	
2517	0	32748	
2518	0	33244	
2519	0	33124	
2520	0	33708	
2521	0	33172	
2522	0	33368	
2523	0	32602	
2524	0	32252	
2525	0	31868	
2526	0	31936	
2527	0	32616	
2528	0	33182	
2529	0	33352	
2530	0	33590	
2531	0	33096	
2532	0	33072	
2533	0	32404	
2534	0	32324	
2535	0	31888	
2536	0	32060	
2537	0	32896	
2538	0	33324	
2539	0	33044	
2540	0	33752	
2541	0	33192	
2542	0	32728	
2543	0	32492	
2544	0	32268	
2545	0	31982	
2546	0	32048	
2547	0	32820	
2548	0	33232	
2549	0	33312	
2550	0	33776	
2551	0	33492	
2552	0	32848	
2553	0	32165	
2554	0	32072	
2555	0	31820	
2556	0	32160	
2557	0	32420	
2558	0	33620	
2559	0	33344	
2560	0	33944	
2561	0	33204	
2562	0	32816	
2563	0	32448	
2564	0	32168	
2565	0	31884	
2566	0	32044	
2567	0	33052	
2568	0	33060	
2569	0	33300	
2570	0	33520	
2571	0	33448	
2572	0	32700	
2573	0	32138	
2574	0	32560	
2575	0	32188	
2576	0	32358	
2577	0	32740	
2578	0	33252	
2579	0	33014	
2580	0	33596	
2581	0	33428	
2582	0	32528	
2583	0	32176	
2584	0	32704	
2585	0	31800	
2586	0	32082	
2587	0	32736	
2588	0	33434	
2589	0	33368	
2590	0	33452	
2591	0	33482	
2592	0	32888	
2593	0	32076	
2594	0	32552	
2595	0	31968	
2596	0	32062	
2597	0	32614	
2598	0	33288	
2599	0	33280	
2600	0	34048	
2601	0	33434	
2602	0	32780	
2603	0	32120	
2604	0	32240	
2605	0	31656	
2606	0	31912	
2607	0	33120	
2608	0	33240	
2609	0	33452	
2610	0	33632	
2611	0	33500	
2612	0	32392	
2613	0	32588	
2614	0	32452	
2615	0	31784	
2616	0	32624	
2617	0	32668	
2618	0	33196	
2619	0	33120	
2620	0	33564	
2621	0	33428	
2622	0	32622	
2623	0	32300	
2624	0	32264	
2625	0	31996	
2626	0	32256	
2627	0	32900	
2628	0	33236	
2629	0	33448	
2630	0	33648	
2631	0	33636	
2632	0	32564	
2633	0	32284	
2634	0	32280	
2635	0	32000	
2636	0	32188	
2637	0	32906	
2638	0	33156	
2639	0	33288	
2640	0	33692	
2641	0	33186	
2642	0	32522	
2643	0	33048	
2644	0	32128	
2645	0	32052	
2646	0	32204	
2647	0	32838	
2648	0	33284	
2649	0	33228	
2650	0	33660	
2651	0	33262	
2652	0	32706	
2653	0	32280	
2654	0	32310	
2655	0	32260	
2656	0	32168	
2657	0	32764	
2658	0	33300	
2659	0	33420	
2660	0	33408	
2661	0	33080	
2662	0	33056	
2663	0	32676	
2664	0	32276	
2665	0	31792	
2666	0	31940	
2667	0	32758	
2668	0	33428	
2669	0	33088	
2670	0	33416	
2671	0	33640	
2672	0	32760	
2673	0	32236	
2674	0	32170	
2675	0	31816	
2676	0	32302	
2677	0	32956	
2678	0	33440	
2679	0	33252	
2680	0	33744	
2681	0	33338	
2682	0	32556	
2683	0	32276	
2684	0	32252	
2685	0	31768	
2686	0	32312	
2687	0	32932	
2688	0	33182	
2689	0	33388	
2690	0	33644	
2691	0	33296	
2692	0	32740	
2693	0	32428	
2694	0	32242	
2695	0	31876	
2696	0	32160	
2697	0	32596	
2698	0	33452	
2699	0	33304	
2700	0	33868	
2701	0	33316	
2702	0	32532	
2703	0	32244	
2704	0	32484	
2705	0	31896	
2706	0	32266	
2707	0	32824	
2708	0	33116	
2709	0	33268	
2710	0	33508	
2711	0	33420	
2712	0	32772	
2713	0	32532	
2714	0	32400	
2715	0	31726	
2716	0	32124	
2717	0	32764	
2718	0	33400	
2719	0	33452	
2720	0	33222	
2721	0	33832	
2722	0	32530	
2723	0	32124	
2724	0	32396	
2725	0	32260	
2726	0	32328	
2727	0	32606	
2728	0	32972	
2729	0	33010	
2730	0	34012	
2731	0	33264	
2732	0	32712	
2733	0	32448	
2734	0	32248	
2735	0	31732	
2736	0	32148	
2737	0	32784	
2738	0	33344	
2739	0	33320	
2740	0	33604	
2741	0	33472	
2742	0	32742	
2743	0	32222	
2744	0	32334	
2745	0	31844	
2746	0	32184	
2747	0	32926	
2748	0	33092	
2749	0	33370	
2750	0	33600	
2751	0	33492	
2752	0	32700	
2753	0	32356	
2754	0	32036	
2755	0	32200	
2756	0	32220	
2757	0	32418	
2758	0	33886	
2759	0	33116	
2760	0	33920	
2761	0	33448	
2762	0	32684	
2763	0	32120	
2764	0	32156	
2765	0	31772	
2766	0	32092	
2767	0	32890	
2768	0	33440	
2769	0	33316	
2770	0	33748	
2771	0	33140	
2772	0	32656	
2773	0	32280	
2774	0	32136	
2775	0	31892	
2776	0	32316	
2777	0	33028	
2778	0	32888	
2779	0	33188	
2780	0	34160	
2781	0	33444	
2782	0	32824	
2783	0	32250	
2784	0	32128	
2785	0	31860	
2786	0	32285	
2787	0	32724	
2788	0	33056	
2789	0	33280	
2790	0	33568	
2791	0	33556	
2792	0	32780	
2793	0	32256	
2794	0	32328	
2795	0	32168	
2796	0	32224	
2797	0	32746	
2798	0	33192	
2799	0	33152	
2800	0	33728	
2801	0	33364	
2802	0	32364	
2803	0	32428	
2804	0	32368	
2805	0	32078	
2806	0	32292	
2807	0	32820	
2808	0	33344	
2809	0	33116	
2810	0	33984	
2811	0	33288	
2812	0	32616	
2813	0	32116	
2814	0	32212	
2815	0	32324	
2816	0	32476	
2817	0	32692	
2818	0	33132	
2819	0	33296	
2820	0	33604	
2821	0	33382	
2822	0	32608	
2823	0	32252	
2824	0	32244	
2825	0	31932	
2826	0	32288	
2827	0	32732	
2828	0	33244	
2829	0	33560	
2830	0	33512	
2831	0	33430	
2832	0	33140	
2833	0	32264	
2834	0	32156	
2835	0	31740	
2836	0	32042	
2837	0	32358	
2838	0	33912	
2839	0	33148	
2840	0	33908	
2841	0	33216	
2842	0	32732	
2843	0	32736	
2844	0	32212	
2845	0	31658	
2846	0	32552	
2847	0	32684	
2848	0	33124	
2849	0	33230	
2850	0	33736	
2851	0	33224	
2852	0	32684	
2853	0	32604	
2854	0	32312	
2855	0	31846	
2856	0	32236	
2857	0	32712	
2858	0	33068	
2859	0	33352	
2860	0	33864	
2861	0	33188	
2862	0	32652	
2863	0	32172	
2864	0	32744	
2865	0	31969	
2866	0	32168	
2867	0	32672	
2868	0	33252	
2869	0	33088	
2870	0	33890	
2871	0	33484	
2872	0	32740	
2873	0	32312	
2874	0	32240	
2875	0	31812	
2876	0	32142	
2877	0	32788	
2878	0	33116	
2879	0	33100	
2880	0	34016	
2881	0	33548	
2882	0	32336	
2883	0	32582	
2884	0	32152	
2885	0	31956	
2886	0	32252	
2887	0	33020	
2888	0	33104	
2889	0	33256	
2890	0	33712	
2891	0	33349	
2892	0	32826	
2893	0	32040	
2894	0	32408	
2895	0	31894	
2896	0	31856	
2897	0	33706	
2898	0	33276	
2899	0	33244	
2900	0	33388	
2901	0	33396	
2902	0	32562	
2903	0	32184	
2904	0	32188	
2905	0	32318	
2906	0	32252	
2907	0	32856	
2908	0	33204	
2909	0	33072	
2910	0	34132	
2911	0	33292	
2912	0	32904	
2913	0	32020	
2914	0	32378	
2915	0	32016	
2916	0	32108	
2917	0	33020	
2918	0	33152	
2919	0	33306	
2920	0	33592	
2921	0	33224	
2922	0	32848	
2923	0	32164	
2924	0	32428	
2925	0	32064	
2926	0	32360	
2927	0	32796	
2928	0	32904	
2929	0	33248	
2930	0	33966	
2931	0	33576	
2932	0	32614	
2933	0	32292	
2934	0	32256	
2935	0	31944	
2936	0	32228	
2937	0	32632	
2938	0	33444	
2939	0	33108	
2940	0	33986	
2941	0	33396	
2942	0	32628	
2943	0	32220	
2944	0	32396	
2945	0	31670	
2946	0	32712	
2947	0	32880	
2948	0	33304	
2949	0	33276	
2950	0	33364	
2951	0	33272	
2952	0	32896	
2953	0	32240	
2954	0	32218	
2955	0	32264	
2956	0	32100	
2957	0	32988	
2958	0	33116	
2959	0	33668	
2960	0	33608	
2961	0	33116	
2962	0	32726	
2963	0	32488	
2964	0	32296	
2965	0	31898	
2966	0	32144	
2967	0	32830	
2968	0	33212	
2969	0	33232	
2970	0	33740	
2971	0	33088	
2972	0	33044	
2973	0	32372	
2974	0	32340	
2975	0	31760	
2976	0	32096	
2977	0	33408	
2978	0	33072	
2979	0	33032	
2980	0	33632	
2981	0	33776	
2982	0	32892	
2983	0	32362	
2984	0	32100	
2985	0	32012	
2986	0	32312	
2987	0	32960	
2988	0	32876	
2989	0	33196	
2990	0	33486	
2991	0	33464	
2992	0	32772	
2993	0	32304	
2994	0	32156	
2995	0	32052	
2996	0	32236	
2997	0	32788	
2998	0	33210	
2999	0	33128	
3000	0	33896	
3001	0	33804	
3002	0	32500	
3003	0	32256	
3004	0	32212	
3005	0	31756	
3006	0	32448	
3007	0	33212	
3008	0	33272	
3009	0	33056	
3010	0	33360	
3011	0	33278	
3012	0	32360	
3013	0	32512	
3014	0	32328	
3015	0	31852	
3016	0	32558	
3017	0	33076	
3018	0	33172	
3019	0	33164	
3020	0	33440	
3021	0	33436	
3022	0	32540	
3023	0	32668	
3024	0	31940	
3025	0	31996	
3026	0	32504	
3027	0	32944	
3028	0	33184	
3029	0	33316	
3030	0	33616	
3031	0	33144	
3032	0	32904	
3033	0	32340	
3034	0	32120	
3035	0	31886	
3036	0	31896	
3037	0	33200	
3038	0	33192	
3039	0	33352	
3040	0	33468	
3041	0	33504	
3042	0	32862	
3043	0	32316	
3044	0	32172	
3045	0	31664	
3046	0	31932	
3047	0	33252	
3048	0	33638	
3049	0	33428	
3050	0	33604	
3051	0	33116	
3052	0	32620	
3053	0	32160	
3054	0	32628	
3055	0	31584	
3056	0	32292	
3057	0	32944	
3058	0	33320	
3059	0	33452	
3060	0	33796	
3061	0	33134	
3062	0	32724	
3063	0	32124	
3064	0	32204	
3065	0	31912	
3066	0	32180	
3067	0	33080	
3068	0	33174	
3069	0	33344	
3070	0	33676	
3071	0	33360	
3072	0	32592	
3073	0	32390	
3074	0	32144	
3075	0	32224	
3076	0	32040	
3077	0	33172	
3078	0	33136	
3079	0	33456	
3080	0	33680	
3081	0	33064	
3082	0	32600	
3083	0	32532	
3084	0	32388	
3085	0	31976	
3086	0	31780	
3087	0	33032	
3088	0	33344	
3089	0	33352	
3090	0	33728	
3091	0	33302	
3092	0	32856	
3093	0	32156	
3094	0	32288	
3095	0	31980	
3096	0	32372	
3097	0	32804	
3098	0	32966	
3099	0	33668	
3100	0	33508	
3101	0	33505	
3102	0	32740	
3103	0	32456	
3104	0	32172	
3105	0	31846	
3106	0	32186	
3107	0	32998	
3108	0	32752	
3109	0	33850	
3110	0	33712	
3111	0	33504	
3112	0	32500	
3113	0	32220	
3114	0	32232	
3115	0	31876	
3116	0	32124	
3117	0	33040	
3118	0	33296	
3119	0	33220	
3120	0	33792	
3121	0	33116	
3122	0	32484	
3123	0	32652	
3124	0	31882	
3125	0	32356	
3126	0	32080	
3127	0	32832	
3128	0	33264	
3129	0	33340	
3130	0	33592	
3131	0	33404	
3132	0	32692	
3133	0	32372	
3134	0	32220	
3135	0	31720	
3136	0	32560	
3137	0	32936	
3138	0	33268	
3139	0	33432	
3140	0	33568	
3141	0	33320	
3142	0	32680	
3143	0	32076	
3144	0	32440	
3145	0	31660	
3146	0	32312	
3147	0	32904	
3148	0	33164	
3149	0	33504	
3150	0	33592	
3151	0	32840	
3152	0	33028	
3153	0	32392	
3154	0	32056	
3155	0	32110	
3156	0	32264	
3157	0	32844	
3158	0	33120	
3159	0	33352	
3160	0	33604	
3161	0	33096	
3162	0	32460	
3163	0	32372	
3164	0	32504	
3165	0	32036	
3166	0	32404	
3167	0	32908	
3168	0	33148	
3169	0	33172	
3170	0	33760	
3171	0	33308	
3172	0	32772	
3173	0	32216	
3174	0	32260	
3175	0	32132	
3176	0	32208	
3177	0	32740	
3178	0	32820	
3179	0	33452	
3180	0	34078	
3181	0	33480	
3182	0	32788	
3183	0	32192	
3184	0	32132	
3185	0	31740	
3186	0	32164	
3187	0	32868	
3188	0	33220	
3189	0	33428	
3190	0	33656	
3191	0	33312	
3192	0	32692	
3193	0	32428	
3194	0	32060	
3195	0	31756	
3196	0	32276	
3197	0	33092	
3198	0	33272	
3199	0	33270	
3200	0	33328	
3201	0	33174	
3202	0	32836	
3203	0	32564	
3204	0	32344	
3205	0	31764	
3206	0	32240	
3207	0	32760	
3208	0	33228	
3209	0	33028	
3210	0	33420	
3211	0	34192	
3212	0	32714	
3213	0	32432	
3214	0	32156	
3215	0	31832	
3216	0	32188	
3217	0	32958	
3218	0	33142	
3219	0	33384	
3220	0	33936	
3221	0	33276	
3222	0	32588	
3223	0	32372	
3224	0	32272	
3225	0	31862	
3226	0	32312	
3227	0	32700	
3228	0	33240	
3229	0	33512	
3230	0	33968	
3231	0	33468	
3232	0	32474	
3233	0	32316	
3234	0	32480	
3235	0	31808	
3236	0	32204	
3237	0	33120	
3238	0	33236	
3239	0	32984	
3240	0	33892	
3241	0	33340	
3242	0	32386	
3243	0	32300	
3244	0	32200	
3245	0	32282	
3246	0	32348	
3247	0	32724	
3248	0	33168	
3249	0	33248	
3250	0	33732	
3251	0	33040	
3252	0	32544	
3253	0	32240	
3254	0	32508	
3255	0	31884	
3256	0	32460	
3257	0	32796	
3258	0	33492	
3259	0	33228	
3260	0	33884	
3261	0	32672	
3262	0	32532	
3263	0	33100	
3264	0	32172	
3265	0	32072	
3266	0	32112	
3267	0	32728	
3268	0	33216	
3269	0	33352	
3270	0	33652	
3271	0	33584	
3272	0	32528	
3273	0	32212	
3274	0	32268	
3275	0	31948	
3276	0	32144	
3277	0	32932	
3278	0	33196	
3279	0	33198	
3280	0	33888	
3281	0	33400	
3282	0	32740	
3283	0	32320	
3284	0	32260	
3285	0	31800	
3286	0	32364	
3287	0	33060	
3288	0	33188	
3289	0	33344	
3290	0	33428	
3291	0	33492	
3292	0	32802	
3293	0	32340	
3294	0	31780	
3295	0	32044	
3296	0	32352	
3297	0	32744	
3298	0	33292	
3299	0	33324	
3300	0	34040	
3301	0	33180	
3302	0	32560	
3303	0	32548	
3304	0	32254	
3305	0	31460	
3306	0	32600	
3307	0	33164	
3308	0	33040	
3309	0	33308	
3310	0	33828	
3311	0	33366	
3312	0	32236	
3313	0	32592	
3314	0	32036	
3315	0	32168	
3316	0	32326	
3317	0	33076	
3318	0	33000	
3319	0	33416	
3320	0	33700	
3321	0	33184	
3322	0	32736	
3323	0	32304	
3324	0	32228	
3325	0	31848	
3326	0	32416	
3327	0	33036	
3328	0	33232	
3329	0	33324	
3330	0	33702	
3331	0	33152	
3332	0	32552	
3333	0	32320	
3334	0	32192	
3335	0	32008	
3336	0	32200	
3337	0	32992	
3338	0	33400	
3339	0	33412	
3340	0	33680	
3341	0	33252	
3342	0	32602	
3343	0	32292	
3344	0	32264	
3345	0	31916	
3346	0	32412	
3347	0	32840	
3348	0	33172	
3349	0	33184	
3350	0	33572	
3351	0	33484	
3352	0	32828	
3353	0	32418	
3354	0	32288	
3355	0	31840	
3356	0	32240	
3357	0	32972	
3358	0	32964	
3359	0	33000	
3360	0	33780	
3361	0	33450	
3362	0	32586	
3363	0	32244	
3364	0	32212	
3365	0	32036	
3366	0	31832	
3367	0	33456	
3368	0	33808	
3369	0	33012	
3370	0	33856	
3371	0	33200	
3372	0	32460	
3373	0	32172	
3374	0	32192	
3375	0	31852	
3376	0	32310	
3377	0	32988	
3378	0	33196	
3379	0	33232	
3380	0	33740	
3381	0	33208	
3382	0	32588	
3383	0	32368	
3384	0	32140	
3385	0	31904	
3386	0	32672	
3387	0	32948	
3388	0	33356	
3389	0	33096	
3390	0	33540	
3391	0	33008	
3392	0	33000	
3393	0	32468	
3394	0	32412	
3395	0	31832	
3396	0	32304	
3397	0	32860	
3398	0	33384	
3399	0	33372	
3400	0	33688	
3401	0	33010	
3402	0	32468	
3403	0	32292	
3404	0	32096	
3405	0	32368	
3406	0	32476	
3407	0	32952	
3408	0	33148	
3409	0	33014	
3410	0	34036	
3411	0	33024	
3412	0	32668	
3413	0	32384	
3414	0	32188	
3415	0	31572	
3416	0	32548	
3417	0	33024	
3418	0	33244	
3419	0	33220	
3420	0	33872	
3421	0	32960	
3422	0	32533	
3423	0	32176	
3424	0	32828	
3425	0	31784	
3426	0	32160	
3427	0	32960	
3428	0	33388	
3429	0	33452	
3430	0	33460	
3431	0	33166	
3432	0	32608	
3433	0	32388	
3434	0	32392	
3435	0	31882	
3436	0	32244	
3437	0	32752	
3438	0	33136	
3439	0	33572	
3440	0	34080	
3441	0	33212	
3442	0	32440	
3443	0	32472	
3444	0	32132	
3445	0	31848	
3446	0	32238	
3447	0	32840	
3448	0	33492	
3449	0	33408	
3450	0	33716	
3451	0	33104	
3452	0	32482	
3453	0	32312	
3454	0	32312	
3455	0	31888	
3456	0	32408	
3457	0	32708	
3458	0	33084	
3459	0	33380	
3460	0	33672	
3461	0	33424	
3462	0	32468	
3463	0	32280	
3464	0	32428	
3465	0	31952	
3466	0	32344	
3467	0	32868	
3468	0	33172	
3469	0	33412	
3470	0	33944	
3471	0	33036	
3472	0	32516	
3473	0	32092	
3474	0	32200	
3475	0	31960	
3476	0	32492	
3477	0	33104	
3478	0	33124	
3479	0	33416	
3480	0	33556	
3481	0	32884	
3482	0	32548	
3483	0	32448	
3484	0	32128	
3485	0	32336	
3486	0	32568	
3487	0	32884	
3488	0	33064	
3489	0	33364	
3490	0	33592	
3491	0	33208	
3492	0	32392	
3493	0	32452	
3494	0	32280	
3495	0	32016	
3496	0	32412	
3497	0	32910	
3498	0	33408	
3499	0	33220	
3500	0	33542	
3501	0	33256	
3502	0	32676	
3503	0	32456	
3504	0	32260	
3505	0	32012	
3506	0	32460	
3507	0	32908	
3508	0	33052	
3509	0	33284	
3510	0	33568	
3511	0	33220	
3512	0	32672	
3513	0	32334	
3514	0	32256	
3515	0	31804	
3516	0	32492	
3517	0	32828	
3518	0	32958	
3519	0	33664	
3520	0	33572	
3521	0	33216	
3522	0	32060	
3523	0	33180	
3524	0	32342	
3525	0	31824	
3526	0	32228	
3527	0	32836	
3528	0	33324	
3529	0	33204	
3530	0	33724	
3531	0	33370	
3532	0	32548	
3533	0	31896	
3534	0	32540	
3535	0	31752	
3536	0	32712	
3537	0	32820	
3538	0	33264	
3539	0	33284	
3540	0	33592	
3541	0	33200	
3542	0	32472	
3543	0	31944	
3544	0	32336	
3545	0	32040	
3546	0	32276	
3547	0	33048	
3548	0	33692	
3549	0	33362	
3550	0	33504	
3551	0	33004	
3552	0	32718	
3553	0	32148	
3554	0	32110	
3555	0	31576	
3556	0	32940	
3557	0	33132	
3558	0	33400	
3559	0	33108	
3560	0	33552	
3561	0	33296	
3562	0	32640	
3563	0	32320	
3564	0	32204	
3565	0	31972	
3566	0	32402	
3567	0	32924	
3568	0	33044	
3569	0	33368	
3570	0	33652	
3571	0	33220	
3572	0	32796	
3573	0	32188	
3574	0	32332	
3575	0	31864	
3576	0	31864	
3577	0	33112	
3578	0	33968	
3579	0	33300	
3580	0	33500	
3581	0	33262	
3582	0	32504	
3583	0	32240	
3584	0	32248	
3585	0	31940	
3586	0	32548	
3587	0	33032	
3588	0	33236	
3589	0	33134	
3590	0	33620	
3591	0	32968	
3592	0	32792	
3593	0	32400	
3594	0	32216	
3595	0	32312	
3596	0	32438	
3597	0	32620	
3598	0	33176	
3599	0	33524	
3600	0	33428	
3601	0	33616	
3602	0	32660	
3603	0	32228	
3604	0	32156	
3605	0	31640	
3606	0	32314	
3607	0	33368	
3608	0	33356	
3609	0	33252	
3610	0	33724	
3611	0	33240	
3612	0	32560	
3613	0	32268	
3614	0	32336	
3615	0	31868	
3616	0	32192	
3617	0	32700	
3618	0	33720	
3619	0	33504	
3620	0	33524	
3621	0	32884	
3622	0	32968	
3623	0	32356	
3624	0	32324	
3625	0	31844	
3626	0	32216	
3627	0	32804	
3628	0	33300	
3629	0	33200	
3630	0	34008	
3631	0	33160	
3632	0	32540	
3633	0	32146	
3634	0	32236	
3635	0	31872	
3636	0	32292	
3637	0	32932	
3638	0	33428	
3639	0	33552	
3640	0	33844	
3641	0	32592	
3642	0	33100	
3643	0	32428	
3644	0	32300	
3645	0	31898	
3646	0	32296	
3647	0	32984	
3648	0	32984	
3649	0	33592	
3650	0	33396	
3651	0	33656	
3652	0	32622	
3653	0	32334	
3654	0	32212	
3655	0	31748	
3656	0	32332	
3657	0	32966	
3658	0	33302	
3659	0	33328	
3660	0	33640	
3661	0	33287	
3662	0	32474	
3663	0	32317	
3664	0	32232	
3665	0	31618	
3666	0	32828	
3667	0	32864	
3668	0	33128	
3669	0	33484	
3670	0	33480	
3671	0	33156	
3672	0	32604	
3673	0	32538	
3674	0	32332	
3675	0	31926	
3676	0	32324	
3677	0	32980	
3678	0	33080	
3679	0	33060	
3680	0	34072	
3681	0	33176	
3682	0	32572	
3683	0	32368	
3684	0	32232	
3685	0	31922	
3686	0	32246	
3687	0	33160	
3688	0	33116	
3689	0	33356	
3690	0	33750	
3691	0	33056	
3692	0	32456	
3693	0	31980	
3694	0	32632	
3695	0	32120	
3696	0	32448	
3697	0	32836	
3698	0	33216	
3699	0	33480	
3700	0	33660	
3701	0	33156	
3702	0	32496	
3703	0	32344	
3704	0	32236	
3705	0	31952	
3706	0	32456	
3707	0	33232	
3708	0	32964	
3709	0	33352	
3710	0	33620	
3711	0	33100	
3712	0	32696	
3713	0	32200	
3714	0	32462	
3715	0	31976	
3716	0	32336	
3717	0	32752	
3718	0	32992	
3719	0	33652	
3720	0	33756	
3721	0	32996	
3722	0	32460	
3723	0	32368	
3724	0	32490	
3725	0	31880	
3726	0	32308	
3727	0	33104	
3728	0	32960	
3729	0	33324	
3730	0	33680	
3731	0	33192	
3732	0	32632	
3733	0	32268	
3734	0	32252	
3735	0	31744	
3736	0	32516	
3737	0	33060	
3738	0	33040	
3739	0	33478	
3740	0	33928	
3741	0	33362	
3742	0	32362	
3743	0	32160	
3744	0	32072	
3745	0	31994	
3746	0	32328	
3747	0	33022	
3748	0	33360	
3749	0	33312	
3750	0	33716	
3751	0	33240	
3752	0	32176	
3753	0	32432	
3754	0	32624	
3755	0	32028	
3756	0	32262	
3757	0	32724	
3758	0	33302	
3759	0	33370	
3760	0	33472	
3761	0	33032	
3762	0	32448	
3763	0	32708	
3764	0	32420	
3765	0	31904	
3766	0	32732	
3767	0	33096	
3768	0	33152	
3769	0	33088	
3770	0	33656	
3771	0	33216	
3772	0	32560	
3773	0	32216	
3774	0	32212	
3775	0	31828	
3776	0	32544	
3777	0	32912	
3778	0	33588	
3779	0	33164	
3780	0	33544	
3781	0	33376	
3782	0	32504	
3783	0	32140	
3784	0	32206	
3785	0	31856	
3786	0	32332	
3787	0	32708	
3788	0	33832	
3789	0	33400	
3790	0	33618	
3791	0	33088	
3792	0	32460	
3793	0	32364	
3794	0	32192	
3795	0	32048	
3796	0	32388	
3797	0	32944	
3798	0	33178	
3799	0	33504	
3800	0	33556	
3801	0	33160	
3802	0	32512	
3803	0	32424	
3804	0	31932	
3805	0	32312	
3806	0	32480	
3807	0	32964	
3808	0	33200	
3809	0	33440	
3810	0	33464	
3811	0	32908	
3812	0	32716	
3813	0	32228	
3814	0	32324	
3815	0	32140	
3816	0	32230	
3817	0	33072	
3818	0	33148	
3819	0	33300	
3820	0	33456	
3821	0	33288	
3822	0	32848	
3823	0	32452	
3824	0	32340	
3825	0	31802	
3826	0	32232	
3827	0	33029	
3828	0	32828	
3829	0	33520	
3830	0	34052	
3831	0	33024	
3832	0	32588	
3833	0	32292	
3834	0	32224	
3835	0	31772	
3836	0	32300	
3837	0	33020	
3838	0	33340	
3839	0	33364	
3840	0	33696	
3841	0	33140	
3842	0	32636	
3843	0	31948	
3844	0	32532	
3845	0	31928	
3846	0	32216	
3847	0	32756	
3848	0	33696	
3849	0	33236	
3850	0	33696	
3851	0	33116	
3852	0	32704	
3853	0	32296	
3854	0	32000	
3855	0	32016	
3856	0	32056	
3857	0	33360	
3858	0	33328	
3859	0	33292	
3860	0	33556	
3861	0	33150	
3862	0	32597	
3863	0	32260	
3864	0	32320	
3865	0	31864	
3866	0	32438	
3867	0	32786	
3868	0	33168	
3869	0	33250	
3870	0	33808	
3871	0	32888	
3872	0	32828	
3873	0	32384	
3874	0	32328	
3875	0	32080	
3876	0	32194	
3877	0	32868	
3878	0	33320	
3879	0	33312	
3880	0	33648	
3881	0	33336	
3882	0	32612	
3883	0	32408	
3884	0	32257	
3885	0	31842	
3886	0	32288	
3887	0	32832	
3888	0	33222	
3889	0	33320	
3890	0	33596	
3891	0	33400	
3892	0	32424	
3893	0	32792	
3894	0	32286	
3895	0	31752	
3896	0	32420	
3897	0	32918	
3898	0	33336	
3899	0	33320	
3900	0	33936	
3901	0	33028	
3902	0	32328	
3903	0	32332	
3904	0	32476	
3905	0	31352	
3906	0	33064	
3907	0	32832	
3908	0	33448	
3909	0	33388	
3910	0	33634	
3911	0	33220	
3912	0	32396	
3913	0	32232	
3914	0	31972	
3915	0	32232	
3916	0	32612	
3917	0	32982	
3918	0	33068	
3919	0	33180	
3920	0	33724	
3921	0	33226	
3922	0	32484	
3923	0	32276	
3924	0	32436	
3925	0	31880	
3926	0	32440	
3927	0	33012	
3928	0	33280	
3929	0	33392	
3930	0	33760	
3931	0	33108	
3932	0	32536	
3933	0	32252	
3934	0	32292	
3935	0	32312	
3936	0	32220	
3937	0	33220	
3938	0	33224	
3939	0	33264	
3940	0	33656	
3941	0	33084	
3942	0	32732	
3943	0	32420	
3944	0	32052	
3945	0	31952	
3946	0	32438	
3947	0	32908	
3948	0	33060	
3949	0	33260	
3950	0	33688	
3951	0	33240	
3952	0	32524	
3953	0	32528	
3954	0	32196	
3955	0	32040	
3956	0	32436	
3957	0	33000	
3958	0	33036	
3959	0	33224	
3960	0	33864	
3961	0	33452	
3962	0	32736	
3963	0	32164	
3964	0	32054	
3965	0	32076	
3966	0	32292	
3967	0	32952	
3968	0	33320	
3969	0	33320	
3970	0	33680	
3971	0	33172	
3972	0	32532	
3973	0	32220	
3974	0	32104	
3975	0	32004	
3976	0	32732	
3977	0	32916	
3978	0	33184	
3979	0	33248	
3980	0	33556	
3981	0	33264	
3982	0	32652	
3983	0	32334	
3984	0	32256	
3985	0	31856	
3986	0	32456	
3987	0	32965	
3988	0	32980	
3989	0	33660	
3990	0	33996	
3991	0	33632	
3992	0	32220	
3993	0	32364	
3994	0	32284	
3995	0	31636	
3996	0	32420	
3997	0	33216	
3998	0	33348	
3999	0	33312	
4000	0	33608	
4001	0	33116	
4002	0	32376	
4003	0	32504	
4004	0	32520	
4005	0	31956	
4006	0	32440	
4007	0	32964	
4008	0	33264	
4009	0	33132	
4010	0	33812	
4011	0	33076	
4012	0	32548	
4013	0	32444	
4014	0	32336	
4015	0	32044	
4016	0	32518	
4017	0	33000	
4018	0	33260	
4019	0	33356	
4020	0	33404	
4021	0	33010	
4022	0	32844	
4023	0	32548	
4024	0	31928	
4025	0	31974	
4026	0	32644	
4027	0	32920	
4028	0	33246	
4029	0	33088	
4030	0	33852	
4031	0	33072	
4032	0	32734	
4033	0	32205	
4034	0	32324	
4035	0	31876	
4036	0	32300	
4037	0	33108	
4038	0	33224	
4039	0	33248	
4040	0	33672	
4041	0	33004	
4042	0	32760	
4043	0	32588	
4044	0	32292	
4045	0	31876	
4046	0	32404	
4047	0	33012	
4048	0	33240	
4049	0	33294	
4050	0	33468	
4051	0	33076	
4052	0	32894	
4053	0	32492	
4054	0	32288	
4055	0	31828	
4056	0	32238	
4057	0	32832	
4058	0	33292	
4059	0	33664	
4060	0	33648	
4061	0	33156	
4062	0	32414	
4063	0	32306	
4064	0	32188	
4065	0	31926	
4066	0	32432	
4067	0	33084	
4068	0	33164	
4069	0	33340	
4070	0	33504	
4071	0	33188	
4072	0	32632	
4073	0	32414	
4074	0	32256	
4075	0	32026	
4076	0	32396	
4077	0	32940	
4078	0	33132	
4079	0	33556	
4080	0	33324	
4081	0	33600	
4082	0	32396	
4083	0	31876	
4084	0	32332	
4085	0	32062	
4086	0	32424	
4087	0	33044	
4088	0	33368	
4089	0	33376	
4090	0	33698	
4091	0	33024	
4092	0	32452	
4093	0	32228	
4094	0	32392	
4095	0	31916	
4096	0	32101	
4097	0	33244	
4098	0	33138	
4099	0	33428	
4100	0	33580	
4101	0	32960	
4102	0	32808	
4103	0	32284	
4104	0	32380	
4105	0	31888	
4106	0	32228	
4107	0	33044	
4108	0	33232	
4109	0	32918	
4110	0	34068	
4111	0	33292	
4112	0	32240	
4113	0	32144	
4114	0	32532	
4115	0	31728	
4116	0	32612	
4117	0	33012	
4118	0	33224	
4119	0	33104	
4120	0	33808	
4121	0	33064	
4122	0	32580	
4123	0	32276	
4124	0	32088	
4125	0	31752	
4126	0	32300	
4127	0	33680	
4128	0	33292	
4129	0	33356	
4130	0	33684	
4131	0	33050	
4132	0	32572	
4133	0	32180	
4134	0	32280	
4135	0	31968	
4136	0	32448	
4137	0	33060	
4138	0	33045	
4139	0	33456	
4140	0	33908	
4141	0	33012	
4142	0	32546	
4143	0	32200	
4144	0	32172	
4145	0	31904	
4146	0	32412	
4147	0	33220	
4148	0	33164	
4149	0	33436	
4150	0	33616	
4151	0	33224	
4152	0	32528	
4153	0	32256	
4154	0	32192	
4155	0	31764	
4156	0	32580	
4157	0	33060	
4158	0	33300	
4159	0	33340	
4160	0	33572	
4161	0	33184	
4162	0	32424	
4163	0	32340	
4164	0	31996	
4165	0	31904	
4166	0	33024	
4167	0	33160	
4168	0	33092	
4169	0	33064	
4170	0	33476	
4171	0	33160	
4172	0	32828	
4173	0	32344	
4174	0	32056	
4175	0	32288	
4176	0	32352	
4177	0	32990	
4178	0	33326	
4179	0	33312	
4180	0	33616	
4181	0	33094	
4182	0	32572	
4183	0	32330	
4184	0	31800	
4185	0	32712	
4186	0	32620	
4187	0	32900	
4188	0	33036	
4189	0	33320	
4190	0	33614	
4191	0	33056	
4192	0	32448	
4193	0	32452	
4194	0	32528	
4195	0	31632	
4196	0	32432	
4197	0	33120	
4198	0	33376	
4199	0	33316	
4200	0	33432	
4201	0	33116	
4202	0	32748	
4203	0	32352	
4204	0	32368	
4205	0	31584	
4206	0	32656	
4207	0	33248	
4208	0	33412	
4209	0	33282	
4210	0	33536	
4211	0	32960	
4212	0	32520	
4213	0	32602	
4214	0	32416	
4215	0	31784	
4216	0	32552	
4217	0	32954	
4218	0	33328	
4219	0	33048	
4220	0	33774	
4221	0	33184	
4222	0	32321	
4223	0	32248	
4224	0	32056	
4225	0	31980	
4226	0	32444	
4227	0	32956	
4228	0	33648	
4229	0	33154	
4230	0	33868	
4231	0	33024	
4232	0	32480	
4233	0	32304	
4234	0	32104	
4235	0	31796	
4236	0	32382	
4237	0	33320	
4238	0	33104	
4239	0	33304	
4240	0	33650	
4241	0	33192	
4242	0	32348	
4243	0	32470	
4244	0	32116	
4245	0	31392	
4246	0	32878	
4247	0	32928	
4248	0	33498	
4249	0	33368	
4250	0	33656	
4251	0	33056	
4252	0	32380	
4253	0	32284	
4254	0	31984	
4255	0	32324	
4256	0	32456	
4257	0	32908	
4258	0	33252	
4259	0	33390	
4260	0	33588	
4261	0	33034	
4262	0	32272	
4263	0	32212	
4264	0	32438	
4265	0	32033	
4266	0	32378	
4267	0	33196	
4268	0	33196	
4269	0	33462	
4270	0	33580	
4271	0	32988	
4272	0	32678	
4273	0	32180	
4274	0	31924	
4275	0	32314	
4276	0	32512	
4277	0	33068	
4278	0	33150	
4279	0	33324	
4280	0	33548	
4281	0	33134	
4282	0	32496	
4283	0	32308	
4284	0	32304	
4285	0	31704	
4286	0	32620	
4287	0	32776	
4288	0	33408	
4289	0	33376	
4290	0	33386	
4291	0	33704	
4292	0	32494	
4293	0	32068	
4294	0	32188	
4295	0	32164	
4296	0	32388	
4297	0	33014	
4298	0	33072	
4299	0	33196	
4300	0	33502	
4301	0	33056	
4302	0	32840	
4303	0	32366	
4304	0	32380	
4305	0	31820	
4306	0	32268	
4307	0	33036	
4308	0	33308	
4309	0	33382	
4310	0	33812	
4311	0	33048	
4312	0	32564	
4313	0	32182	
4314	0	32280	
4315	0	31782	
4316	0	32488	
4317	0	33348	
4318	0	33382	
4319	0	33258	
4320	0	33760	
4321	0	32728	
4322	0	32624	
4323	0	32534	
4324	0	31784	
4325	0	32512	
4326	0	32444	
4327	0	32936	
4328	0	33520	
4329	0	33332	
4330	0	33484	
4331	0	33066	
4332	0	32388	
4333	0	32232	
4334	0	32432	
4335	0	31916	
4336	0	32444	
4337	0	32986	
4338	0	33192	
4339	0	33304	
4340	0	33872	
4341	0	33088	
4342	0	32418	
4343	0	32432	
4344	0	32144	
4345	0	31944	
4346	0	32604	
4347	0	32814	
4348	0	33296	
4349	0	33340	
4350	0	33624	
4351	0	33092	
4352	0	32408	
4353	0	32368	
4354	0	32400	
4355	0	31972	
4356	0	32460	
4357	0	33014	
4358	0	33096	
4359	0	33348	
4360	0	33704	
4361	0	33064	
4362	0	32448	
4363	0	32440	
4364	0	32228	
4365	0	31860	
4366	0	32804	
4367	0	33250	
4368	0	33212	
4369	0	33348	
4370	0	33584	
4371	0	32932	
4372	0	32320	
4373	0	32584	
4374	0	32384	
4375	0	31952	
4376	0	32508	
4377	0	33038	
4378	0	33088	
4379	0	33416	
4380	0	33600	
4381	0	33174	
4382	0	32438	
4383	0	32424	
4384	0	32184	
4385	0	32096	
4386	0	32532	
4387	0	33060	
4388	0	33204	
4389	0	33264	
4390	0	33380	
4391	0	33516	
4392	0	32400	
4393	0	32016	
4394	0	32136	
4395	0	31768	
4396	0	32668	
4397	0	33400	
4398	0	33308	
4399	0	33228	
4400	0	33484	
4401	0	33252	
4402	0	32554	
4403	0	32028	
4404	0	32272	
4405	0	32072	
4406	0	32452	
4407	0	33120	
4408	0	33342	
4409	0	33256	
4410	0	33854	
4411	0	33080	
4412	0	32756	
4413	0	32040	
4414	0	32263	
4415	0	31760	
4416	0	32428	
4417	0	33600	
4418	0	33316	
4419	0	33232	
4420	0	33508	
4421	0	33316	
4422	0	32460	
4423	0	32276	
4424	0	32248	
4425	0	31876	
4426	0	32356	
4427	0	32528	
4428	0	33760	
4429	0	33632	
4430	0	33316	
4431	0	33108	
4432	0	32448	
4433	0	32212	
4434	0	32064	
4435	0	32316	
4436	0	32648	
4437	0	33012	
4438	0	33108	
4439	0	33396	
4440	0	33492	
4441	0	33068	
4442	0	32416	
4443	0	32448	
4444	0	32196	
4445	0	31852	
4446	0	32676	
4447	0	33108	
4448	0	33162	
4449	0	33528	
4450	0	33662	
4451	0	32604	
4452	0	32928	
4453	0	32232	
4454	0	32380	
4455	0	31928	
4456	0	32452	
4457	0	33104	
4458	0	33180	
4459	0	33008	
4460	0	34032	
4461	0	33208	
4462	0	32280	
4463	0	32436	
4464	0	32248	
4465	0	31861	
4466	0	32432	
4467	0	33120	
4468	0	32820	
4469	0	33586	
4470	0	33958	
4471	0	33200	
4472	0	32544	
4473	0	32064	
4474	0	32006	
4475	0	31862	
4476	0	32796	
4477	0	33608	
4478	0	33264	
4479	0	33204	
4480	0	33718	
4481	0	32964	
4482	0	32068	
4483	0	32284	
4484	0	32350	
4485	0	32116	
4486	0	32400	
4487	0	33280	
4488	0	33336	
4489	0	33148	
4490	0	33948	
4491	0	33080	
4492	0	32368	
4493	0	32380	
4494	0	31942	
4495	0	31954	
4496	0	32580	
4497	0	33076	
4498	0	33362	
4499	0	33512	
4500	0	33516	
4501	0	33068	
4502	0	32500	
4503	0	32464	
4504	0	32372	
4505	0	31872	
4506	0	32572	
4507	0	33118	
4508	0	33200	
4509	0	33364	
4510	0	33576	
4511	0	33026	
4512	0	32268	
4513	0	32336	
4514	0	32262	
4515	0	32574	
4516	0	32304	
4517	0	33004	
4518	0	33518	
4519	0	33172	
4520	0	33676	
4521	0	33102	
4522	0	32188	
4523	0	32488	
4524	0	32464	
4525	0	31876	
4526	0	32568	
4527	0	33008	
4528	0	33316	
4529	0	33216	
4530	0	33560	
4531	0	33208	
4532	0	32636	
4533	0	32344	
4534	0	32304	
4535	0	31912	
4536	0	32480	
4537	0	32868	
4538	0	33198	
4539	0	33412	
4540	0	33632	
4541	0	32752	
4542	0	32718	
4543	0	32236	
4544	0	32708	
4545	0	31876	
4546	0	32476	
4547	0	33064	
4548	0	33232	
4549	0	33380	
4550	0	33656	
4551	0	33084	
4552	0	32396	
4553	0	32148	
4554	0	32352	
4555	0	31908	
4556	0	32460	
4557	0	33060	
4558	0	33312	
4559	0	33304	
4560	0	33656	
4561	0	33004	
4562	0	32568	
4563	0	32336	
4564	0	32380	
4565	0	31772	
4566	0	32360	
4567	0	33284	
4568	0	33412	
4569	0	33102	
4570	0	33840	
4571	0	33220	
4572	0	32388	
4573	0	32204	
4574	0	32164	
4575	0	31740	
4576	0	32508	
4577	0	33016	
4578	0	33104	
4579	0	33412	
4580	0	33564	
4581	0	33214	
4582	0	32502	
4583	0	32216	
4584	0	32204	
4585	0	32012	
4586	0	32684	
4587	0	32864	
4588	0	33212	
4589	0	33404	
4590	0	33904	
4591	0	33136	
4592	0	32304	
4593	0	32168	
4594	0	32440	
4595	0	31804	
4596	0	32508	
4597	0	32968	
4598	0	33444	
4599	0	33260	
4600	0	33664	
4601	0	33044	
4602	0	32280	
4603	0	32088	
4604	0	32632	
4605	0	32080	
4606	0	32816	
4607	0	33028	
4608	0	33440	
4609	0	33080	
4610	0	33680	
4611	0	32984	
4612	0	32558	
4613	0	32440	
4614	0	32100	
4615	0	31988	
4616	0	32480	
4617	0	32884	
4618	0	33316	
4619	0	33524	
4620	0	33588	
4621	0	32982	
4622	0	32520	
4623	0	32444	
4624	0	32404	
4625	0	31826	
4626	0	32532	
4627	0	32996	
4628	0	33156	
4629	0	33392	
4630	0	33820	
4631	0	32868	
4632	0	32500	
4633	0	32308	
4634	0	32492	
4635	0	31796	
4636	0	32484	
4637	0	33112	
4638	0	32956	
4639	0	33504	
4640	0	33924	
4641	0	33032	
4642	0	32348	
4643	0	31926	
4644	0	32596	
4645	0	31852	
4646	0	32268	
4647	0	33320	
4648	0	33164	
4649	0	33218	
